wavelength,amplitude
954.48675,0.151
953.5032500000001,0.134
952.51975,0.125
951.53625,0.119
950.5527500000001,0.113
949.56925,0.114
948.5857500000001,0.104
947.60225,0.103
946.6187500000001,0.104
945.63525,0.102
944.65175,0.111
943.6682500000001,0.118
942.68475,0.138
941.7012500000001,0.172
940.71775,0.239
939.7342500000001,0.336
938.75075,0.461
937.76725,0.606
936.78375,0.748
935.80025,0.878
934.8167500000001,0.967
933.83325,1.000
932.8497500000001,0.995
931.86625,0.950
930.88275,0.877
929.89925,0.765
928.91575,0.644
927.9322500000001,0.538
926.94875,0.457
925.9652500000001,0.401
924.98175,0.361
923.99825,0.356
923.01475,0.378
922.03125,0.404
921.0477500000001,0.451
920.06425,0.489
919.0807500000001,0.519
918.09725,0.528
917.11375,0.525
916.13025,0.483
915.14675,0.438
914.1632500000001,0.401
913.17975,0.369
912.1962500000001,0.347
911.21275,0.337
910.2292500000001,0.336
909.24575,0.331
908.26225,0.315
907.2787500000001,0.297
906.29525,0.267
905.3117500000001,0.230
904.32825,0.192
903.3447500000001,0.157
902.36125,0.131
901.37775,0.113
900.39425,0.097
899.41075,0.085
898.4272500000001,0.075
897.44375,0.070
896.4602500000001,0.069
895.47675,0.069
894.49325,0.063
893.50975,0.064
892.52625,0.063
891.5427500000001,0.063
890.55925,0.061
889.5757500000001,0.059
888.59225,0.059
887.60875,0.062
886.62525,0.062
885.64175,0.059
884.6582500000001,0.062
883.67475,0.061
882.6912500000001,0.063
881.70775,0.068
880.72425,0.082
879.74075,0.102
878.75725,0.124
877.7737500000001,0.161
876.79025,0.193
875.8067500000001,0.217
874.82325,0.237
873.83975,0.236
872.85625,0.227
871.87275,0.208
870.8892500000001,0.184
869.90575,0.163
868.9222500000001,0.153
867.93875,0.165
866.9552500000001,0.199
865.97175,0.249
864.98825,0.333
864.0047500000001,0.432
863.02125,0.519
862.0377500000001,0.578
861.05425,0.602
860.0707500000001,0.565
859.08725,0.512
858.10375,0.444
857.12025,0.365
856.13675,0.280
855.1532500000001,0.219
854.16975,0.179
853.1862500000001,0.144
852.20275,0.128
851.21925,0.114
850.23575,0.114
849.25225,0.121
848.2687500000001,0.139
847.28525,0.174
846.3017500000001,0.225
845.31825,0.276
844.33475,0.318
843.35125,0.344
842.36775,0.349
841.3842500000001,0.317
840.40075,0.273
839.4172500000001,0.229
838.43375,0.188
837.45025,0.150
836.46675,0.119
835.48325,0.097
834.4997500000001,0.085
833.51625,0.080
832.5327500000001,0.076
831.54925,0.076
830.56575,0.083
829.58225,0.098
828.59875,0.121
827.6152500000001,0.143
826.63175,0.164
825.6482500000001,0.171
824.66475,0.169
823.6812500000001,0.166
822.69775,0.148
821.71425,0.123
820.7307500000001,0.101
819.74725,0.083
818.7637500000001,0.072
817.78025,0.065
816.7967500000001,0.060
815.81325,0.058
814.82975,0.058
813.84625,0.055
812.86275,0.059
811.8792500000001,0.062
810.89575,0.063
809.9122500000001,0.068
808.92875,0.064
807.94525,0.060
806.96175,0.056
805.97825,0.053
804.9947500000001,0.047
804.01125,0.040
803.0277500000001,0.041
802.04425,0.041
801.06075,0.040
800.07725,0.041
799.09375,0.040
798.1102500000001,0.039
797.12675,0.038
796.1432500000001,0.038
795.15975,0.039
794.17625,0.042
793.19275,0.043
792.20925,0.045
791.2257500000001,0.042
790.24225,0.042
789.2587500000001,0.043
788.27525,0.044
787.29175,0.045
786.30825,0.054
785.32475,0.061
784.3412500000001,0.073
783.35775,0.090
782.3742500000001,0.108
781.39075,0.111
780.40725,0.111
779.42375,0.098
778.44025,0.084
777.45675,0.073
776.47325,0.056
775.4897500000001,0.054
774.50625,0.049
773.5227500000001,0.049
772.53925,0.055
771.55575,0.066
770.57225,0.085
769.58875,0.101
768.6052500000001,0.113
767.62175,0.126
766.6382500000001,0.123
765.65475,0.112
764.67125,0.096
763.68775,0.082
762.70425,0.063
761.7207500000001,0.052
760.73725,0.045
759.7537500000001,0.039
758.77025,0.035
757.78675,0.036
756.80325,0.035
755.81975,0.030
754.8362500000001,0.031
753.85275,0.031
752.8692500000001,0.028
751.88575,0.027
750.90225,0.027
749.91875,0.028
748.93525,0.028
747.9517500000001,0.027
746.96825,0.026
745.9847500000001,0.025
745.00125,0.028
744.01775,0.026
743.03425,0.027
742.05075,0.026
741.0672500000001,0.025
740.08375,0.026
739.1002500000001,0.030
738.11675,0.026
737.13325,0.028
736.14975,0.028
735.16625,0.026
734.18275,0.025
733.19925,0.027
732.2157500000001,0.025
731.23225,0.025
730.2487500000001,0.026
729.26525,0.026
728.28175,0.025
727.29825,0.025
726.31475,0.027
725.3312500000001,0.026
724.34775,0.025
723.3642500000001,0.024
722.38075,0.023
721.39725,0.023
720.41375,0.024
719.43025,0.023
718.4467500000001,0.024
717.46325,0.025
716.4797500000001,0.026
715.49625,0.026
714.51275,0.025
713.52925,0.024
712.54575,0.023
711.5622500000001,0.024
710.57875,0.025
709.5952500000001,0.026
708.61175,0.027
707.62825,0.024
706.64475,0.025
705.66125,0.025
704.6777500000001,0.025
703.69425,0.024
702.7107500000001,0.023
701.72725,0.023
700.74375,0.026
699.76025,0.024
698.77675,0.024
697.7932500000001,0.025
696.80975,0.024
695.8262500000001,0.024
694.84275,0.023
693.85925,0.024
692.87575,0.023
691.89225,0.024
690.90875,0.024
689.92525,0.024
688.9417500000001,0.024
687.95825,0.023
686.97475,0.024
685.99125,0.024
685.00775,0.023
684.02425,0.024
683.04075,0.022
682.0572500000001,0.023
681.07375,0.022
680.0902500000001,0.022
679.10675,0.023
678.12325,0.022
677.13975,0.021
676.15625,0.020
675.1727500000001,0.020
674.18925,0.022
673.2057500000001,0.022
672.22225,0.023
671.23875,0.023
670.25525,0.023
669.27175,0.023
668.2882500000001,0.022
667.30475,0.022
666.3212500000001,0.022
665.33775,0.022
664.35425,0.021
663.37075,0.022
662.38725,0.022
661.4037500000001,0.023
660.42025,0.024
659.4367500000001,0.023
658.45325,0.022
657.46975,0.023
656.48625,0.024
655.50275,0.022
654.51925,0.022
653.53575,0.021
652.5522500000001,0.021
651.56875,0.021
650.58525,0.021
649.60175,0.021
648.61825,0.021
647.63475,0.022
646.65125,0.023
645.6677500000001,0.023
644.68425,0.022
643.70075,0.020
642.71725,0.019
641.73375,0.019
640.75025,0.019
639.76675,0.019
638.7832500000001,0.019
637.79975,0.020
636.8162500000001,0.020
635.83275,0.020
634.84925,0.019
633.86575,0.019
632.88225,0.018
631.8987500000001,0.020
630.91525,0.018
629.9317500000001,0.019
628.94825,0.020
627.96475,0.020
626.98125,0.021
625.99775,0.023
625.0142500000001,0.033
624.03075,0.046
623.0472500000001,0.064
622.06375,0.099
621.08025,0.137
620.09675,0.180
619.11325,0.213
618.1297500000001,0.234
617.14625,0.232
616.1627500000001,0.208
615.17925,0.176
614.19575,0.138
613.21225,0.105
612.22875,0.072
611.24525,0.053
610.26175,0.041
609.2782500000001,0.035
608.29475,0.031
607.31125,0.028
606.32775,0.025
605.34425,0.023
604.36075,0.021
603.37725,0.019
602.3937500000001,0.019
601.41025,0.020
600.42675,0.020
599.44325,0.019
598.45975,0.019
597.47625,0.019
596.49275,0.019
595.5092500000001,0.019
594.52575,0.020
593.5422500000001,0.019
592.55875,0.019
591.57525,0.020
590.59175,0.020
589.60825,0.022
588.6247500000001,0.025
587.64125,0.049
586.6577500000001,0.091
585.67425,0.153
584.69075,0.231
583.70725,0.334
582.72375,0.459
581.7402500000001,0.565
580.75675,0.627
579.7732500000001,0.629
578.78975,0.586
577.80625,0.518
576.82275,0.432
575.83925,0.340
574.8557500000001,0.248
573.87225,0.180
572.8887500000001,0.128
571.90525,0.099
570.92175,0.082
569.93825,0.063
568.95475,0.049
567.97125,0.041
566.98775,0.033
566.0042500000001,0.027
565.02075,0.025
564.03725,0.023
563.05375,0.022
562.07025,0.022
561.08675,0.020
560.10325,0.019
559.1197500000001,0.019
558.13625,0.019
557.15275,0.017
556.16925,0.017
555.18575,0.016
554.20225,0.016
553.21875,0.016
552.2352500000001,0.016
551.25175,0.016
550.26825,0.016
549.28475,0.016
548.30125,0.017
547.31775,0.016
546.33425,0.016
545.3507500000001,0.016
544.36725,0.016
543.3837500000001,0.016
542.40025,0.016
541.41675,0.016
540.43325,0.016
539.44975,0.017
538.4662500000001,0.016
537.48275,0.017
536.4992500000001,0.016
535.51575,0.016
534.53225,0.016
533.54875,0.014
532.56525,0.015
531.58175,0.015
530.59825,0.015
529.6147500000001,0.016
528.63125,0.015
527.64775,0.015
526.66425,0.015
525.68075,0.015
524.69725,0.015
523.71375,0.018
522.7302500000001,0.019
521.74675,0.021
520.76325,0.022
519.77975,0.022
518.79625,0.021
517.81275,0.020
516.82925,0.018
515.8457500000001,0.018
514.86225,0.018
513.87875,0.017
512.89525,0.017
511.91175000000004,0.018
510.92825000000005,0.018
509.94475,0.018
508.96125,0.016
507.97775,0.016
506.99425,0.016
506.01075000000003,0.017
505.02725000000004,0.017
504.04375000000005,0.016
503.06025,0.016
502.07675,0.016
501.09325,0.016
500.10975,0.016
499.12625,0.017
498.14275000000004,0.017
497.15925000000004,0.017
496.17575,0.017
495.19225,0.018
494.20875,0.017
493.22525,0.017
492.24175,0.018
491.25825000000003,0.017
490.27475000000004,0.018
489.29125000000005,0.018
488.30775,0.019
487.32425,0.018
486.34075,0.019
485.35725,0.020
484.37375000000003,0.019
483.39025000000004,0.019
482.40675000000005,0.018
481.42325,0.018
480.43975,0.019
479.45625,0.019
478.47275,0.020
477.48925,0.020
476.50575000000003,0.020
475.52225000000004,0.022
474.53875,0.022
473.55525,0.021
472.57175,0.021
471.58825,0.022
470.60475,0.024
469.62125000000003,0.026
468.63775000000004,0.030
467.65425000000005,0.039
466.67075,0.061
465.68725,0.095
464.70375,0.140
463.72025,0.193
462.73675000000003,0.258
461.75325000000004,0.312
460.76975000000004,0.356
459.78625,0.383
458.80275,0.399
457.81925,0.395
456.83575,0.367
455.85225,0.326
454.86875000000003,0.272
453.88525000000004,0.220
452.90175,0.173
451.91825,0.137
450.93475,0.111
449.95125,0.089
448.96775,0.074
447.98425000000003,0.061
447.00075000000004,0.053
446.01725000000005,0.048
445.03375,0.047
444.05025,0.046
443.06675,0.046
442.08325,0.045
441.09975000000003,0.044
440.11625000000004,0.042
439.13275000000004,0.039
438.14925,0.037
437.16575,0.037
436.18225,0.042
435.19875,0.051
434.21525,0.068
433.23175000000003,0.095
432.24825000000004,0.131
431.26475,0.173
430.28125,0.217
429.29775,0.261
428.31425,0.293
427.33075,0.308
426.34725000000003,0.303
425.36375000000004,0.280
424.38025,0.239
423.39675,0.192
422.41325,0.148
421.42975,0.104
420.44625,0.073
419.46275,0.057
418.47925000000004,0.040
417.49575000000004,0.033
416.51225,0.027
415.52875,0.023
414.54525,0.021
413.56175,0.020
412.57825,0.019
411.59475000000003,0.017
410.61125000000004,0.015
409.62775,0.016
408.64425,0.016
407.66075,0.015
406.67725,0.015
405.69375,0.015
404.71025000000003,0.015
403.72675000000004,0.014
402.74325,0.014
401.75975,0.013
400.77625,0.013
399.79275,0.013
398.80925,0.013
397.82575,0.013
396.84225000000004,0.013
395.85875000000004,0.014
394.87525,0.014
393.89175,0.013
392.90825,0.015
391.92475,0.017
390.94125,0.018
389.95775000000003,0.018
388.97425000000004,0.020
387.99075,0.024
387.00725,0.023
386.02375,0.022
385.04025,0.021
384.05675,0.020
383.07325000000003,0.018
382.08975000000004,0.015
381.10625,0.014
380.12275,0.014
